step,msd_global,n_round,n_elongated,density
0,0.0,1000.0,0.0,0.7
100,15.551528469847522,1000.0,0.0,0.7
200,19.1670883943587,946.421875,53.578125,0.7
300,24.642531454650218,901.875,98.125,0.7
400,33.47073858845913,854.734375,145.265625,0.7
500,45.43941150170653,809.453125,190.546875,0.7
600,59.64984100849377,769.25,230.75,0.7
700,76.2341612264317,734.109375,265.890625,0.7
800,94.47302712037003,705.140625,294.859375,0.7
900,114.54939482224738,681.625,318.375,0.7
1000,135.02436604530308,660.953125,339.046875,0.7
1100,156.82504061873658,644.546875,355.453125,0.7
1200,181.17344867503843,628.90625,371.09375,0.7
1300,206.6166104001602,616.28125,383.71875,0.7
1400,233.15706433150118,605.21875,394.78125,0.7
1500,260.76841857160105,595.90625,404.09375,0.7
1600,289.05716233674724,585.625,414.375,0.7
1700,317.83198320605624,577.796875,422.203125,0.7
1800,347.4141219603957,569.078125,430.921875,0.7
1900,376.26179514771707,560.75,439.25,0.7
2000,405.59373273187765,551.703125,448.296875,0.7
2100,436.1100943901244,543.140625,456.859375,0.7
2200,469.525604034399,532.765625,467.234375,0.7
2300,504.80216425055136,525.53125,474.46875,0.7
2400,542.2134231894718,518.359375,481.640625,0.7
2500,579.3238805489501,510.40625,489.59375,0.7
2600,618.1536709209176,503.609375,496.390625,0.7
2700,657.5458345872988,497.53125,502.46875,0.7
2800,700.1818029697316,490.0625,509.9375,0.7
2900,745.1292445902466,483.84375,516.15625,0.7
3000,793.5406656255132,477.421875,522.578125,0.7
3100,842.8401106471783,471.109375,528.890625,0.7
3200,892.657487857711,465.625,534.375,0.7
3300,944.9516118073905,459.765625,540.234375,0.7
3400,998.0797225718197,452.75,547.25,0.7
3500,1053.7451746174752,447.5,552.5,0.7
3600,1110.5419630395104,439.640625,560.359375,0.7
3700,1167.1506662515983,433.28125,566.71875,0.7
3800,1225.2113226821023,425.953125,574.046875,0.7
3900,1286.2719498324452,417.78125,582.21875,0.7
4000,1350.697445381829,410.0625,589.9375,0.7
4100,1418.5960257191382,400.96875,599.03125,0.7
4200,1487.086353787051,392.46875,607.53125,0.7
4300,1562.3483419757645,387.609375,612.390625,0.7
4400,1639.1655156309655,380.6875,619.3125,0.7
4500,1722.8399828650956,375.3125,624.6875,0.7
4600,1808.6687856829617,369.875,630.125,0.7
4700,1896.2192140874624,362.671875,637.328125,0.7
4800,1987.6496154926638,357.390625,642.609375,0.7
4900,2084.028558528487,350.734375,649.265625,0.7
5000,2185.276535297037,345.3125,654.6875,0.7
5100,2289.505626347655,338.046875,661.953125,0.7
5200,2398.105555058187,331.921875,668.078125,0.7
5300,2509.341379359782,325.484375,674.515625,0.7
5400,2620.927644606801,317.625,682.375,0.7
5500,2736.2758673290136,310.546875,689.453125,0.7
5600,2857.522407061548,304.78125,695.21875,0.7
5700,2980.0775183984633,299.640625,700.359375,0.7
5800,3107.852789398228,294.71875,705.28125,0.7
5900,3240.669904386849,289.890625,710.109375,0.7
6000,3378.047343640792,284.875,715.125,0.7
6100,3520.13670537112,280.015625,719.984375,0.7
6200,3668.6596517354424,273.234375,726.765625,0.7
6300,3822.081096054031,266.34375,733.65625,0.7
6400,3977.025392950916,259.015625,740.984375,0.7
6500,4140.68199615749,251.90625,748.09375,0.7
6600,4309.628413885802,244.40625,755.59375,0.7
6700,4486.135641779994,236.40625,763.59375,0.7
6800,4664.203420287288,229.046875,770.953125,0.7
6900,4857.03767251282,222.28125,777.71875,0.7
7000,5053.448291116585,215.453125,784.546875,0.7
7100,5255.789938299103,210.625,789.375,0.7
7200,5464.278295172883,206.859375,793.140625,0.7
7300,5679.7281935063465,202.4375,797.5625,0.7
7400,5901.579128492487,197.640625,802.359375,0.7
7500,6128.0126673564855,192.921875,807.078125,0.7
7600,6361.739252119955,188.375,811.625,0.7
7700,6606.435145759414,185.015625,814.984375,0.7
7800,6851.461311932296,180.59375,819.40625,0.7
7900,7108.919034617883,174.84375,825.15625,0.7
8000,7378.1487012436555,170.859375,829.140625,0.7
8100,7652.440259878838,165.71875,834.28125,0.7
8200,7921.631176213921,162.0,838.0,0.7
8300,8201.424848671588,158.296875,841.703125,0.7
8400,8485.852607115055,155.0,845.0,0.7
8500,8787.370308490581,150.71875,849.28125,0.7
8600,9100.295283340683,145.328125,854.671875,0.7
8700,9428.24656410763,140.796875,859.203125,0.7
8800,9758.714658122311,136.5625,863.4375,0.7
8900,10095.589098080585,132.25,867.75,0.7
9000,10444.031271412541,127.578125,872.421875,0.7
9100,10791.05243273777,122.359375,877.640625,0.7
9200,11154.672908897619,117.09375,882.90625,0.7
9300,11535.976098765435,112.609375,887.390625,0.7
9400,11924.876033642448,107.921875,892.078125,0.7
9500,12324.285773909203,104.765625,895.234375,0.7
9600,12726.534390511659,99.421875,900.578125,0.7
9700,13134.513789715566,95.015625,904.984375,0.7
9800,13554.814485819572,92.9375,907.0625,0.7
9900,13992.72994420731,90.5625,909.4375,0.7
10000,14440.831467239428,88.921875,911.078125,0.7
10100,14895.83248068698,87.421875,912.578125,0.7
10200,15370.341644426562,86.25,913.75,0.7
10300,15845.372830251035,84.125,915.875,0.7
10400,16331.699200491144,81.546875,918.453125,0.7
10500,16821.702791296575,79.046875,920.953125,0.7
10600,17322.083912503396,76.765625,923.234375,0.7
10700,17838.92318140483,74.96875,925.03125,0.7
10800,18364.099252059164,73.5,926.5,0.7
10900,18897.211140407526,71.484375,928.515625,0.7
11000,19436.422046735748,69.1875,930.8125,0.7
11100,19990.995853247718,66.5,933.5,0.7
11200,20558.616249480205,63.609375,936.390625,0.7
11300,21143.425976869774,61.6875,938.3125,0.7
11400,21744.08535904751,59.59375,940.40625,0.7
11500,22358.720199662203,57.328125,942.671875,0.7
11600,22986.730925959753,55.796875,944.203125,0.7
11700,23626.290735092327,53.859375,946.140625,0.7
11800,24272.61150107517,52.078125,947.921875,0.7
11900,24925.285752933385,50.078125,949.921875,0.7
12000,25596.445993470566,49.171875,950.828125,0.7
12100,26277.462260905646,48.078125,951.921875,0.7
12200,26968.269368648645,47.59375,952.40625,0.7
12300,27672.08985781833,46.53125,953.46875,0.7
12400,28381.957857405996,46.40625,953.59375,0.7
12500,29117.49849202244,46.203125,953.796875,0.7
12600,29860.632511794087,45.390625,954.609375,0.7
12700,30614.240708119618,45.078125,954.921875,0.7
12800,31383.322593598194,45.4375,954.5625,0.7
12900,32172.068109820135,45.734375,954.265625,0.7
13000,32958.79481346194,45.515625,954.484375,0.7
13100,33765.07440195304,44.375,955.625,0.7
13200,34584.01862362452,42.828125,957.171875,0.7
13300,35417.02745987657,41.984375,958.015625,0.7
13400,36264.54502787845,40.578125,959.421875,0.7
13500,37132.333723812255,39.765625,960.234375,0.7
13600,38010.63466127821,38.921875,961.078125,0.7
13700,38899.81177149913,38.03125,961.96875,0.7
13800,39801.30198467489,36.953125,963.046875,0.7
13900,40727.42891486092,36.5,963.5,0.7
14000,41660.611100688635,35.5625,964.4375,0.7
14100,42609.427237522475,34.8125,965.1875,0.7
14200,43561.84312124323,34.046875,965.953125,0.7
14300,44535.350184161856,33.34375,966.65625,0.7
14400,45518.425183470325,32.859375,967.140625,0.7
14500,46494.81303917596,31.734375,968.265625,0.7
14600,47504.315924607385,30.484375,969.515625,0.7
14700,48530.048292341125,29.265625,970.734375,0.7
14800,49577.10794720474,28.03125,971.96875,0.7
14900,50618.85667012904,27.0,973.0,0.7
15000,51676.98211127978,25.5,974.5,0.7
15100,52742.97564894828,24.71875,975.28125,0.7
15200,53842.01313675307,24.296875,975.703125,0.7
15300,54944.539449473385,24.171875,975.828125,0.7
15400,56072.97116379942,24.515625,975.484375,0.7
15500,57200.41652525289,24.390625,975.609375,0.7
15600,58343.235463934805,24.4375,975.5625,0.7
15700,59489.69569893367,24.546875,975.453125,0.7
15800,60648.7392874808,24.8125,975.1875,0.7
15900,61825.386778022345,24.109375,975.890625,0.7
16000,63007.55424577728,24.125,975.875,0.7
16100,64211.59642689106,24.0625,975.9375,0.7
16200,65429.40539116883,23.5,976.5,0.7
16300,66651.57876493855,22.96875,977.03125,0.7
16400,67891.68330243361,22.03125,977.96875,0.7
16500,69133.65599972516,20.359375,979.640625,0.7
16600,70403.27256606698,19.671875,980.328125,0.7
16700,71685.79387973958,18.9375,981.0625,0.7
16800,72988.78707006226,18.53125,981.46875,0.7
16900,74316.40448104354,18.109375,981.890625,0.7
17000,75657.4483291411,17.765625,982.234375,0.7
17100,76999.20042204608,17.25,982.75,0.7
17200,78360.40994044096,16.890625,983.109375,0.7
17300,79729.6626956944,16.609375,983.390625,0.7
17400,81125.3538744494,16.140625,983.859375,0.7
17500,82533.89383245996,15.984375,984.015625,0.7
17600,83957.53222288622,15.828125,984.171875,0.7
17700,85404.69370967851,15.46875,984.53125,0.7
17800,86851.90423487988,15.15625,984.84375,0.7
17900,88313.87813057839,14.921875,985.078125,0.7
18000,89781.57767569581,14.625,985.375,0.7
18100,91286.02384784026,14.1875,985.8125,0.7
18200,92797.5855984416,13.703125,986.296875,0.7
18300,94299.97759142057,13.453125,986.546875,0.7
18400,95821.86571537706,12.9375,987.0625,0.7
18500,97359.50173732745,12.84375,987.15625,0.7
18600,98897.55933572495,12.5625,987.4375,0.7
18700,100443.27895646119,12.328125,987.671875,0.7
18800,102013.03442644826,11.984375,988.015625,0.7
18900,103600.77848019358,11.46875,988.53125,0.7
19000,105214.96079561985,11.328125,988.671875,0.7
19100,106855.68145926784,11.484375,988.515625,0.7
19200,108500.3036168533,11.5625,988.4375,0.7
19300,110152.94302166915,11.890625,988.109375,0.7
19400,111843.55520332787,11.65625,988.34375,0.7
19500,113551.97128617852,11.578125,988.421875,0.7
19600,115256.4718606823,11.40625,988.59375,0.7
19700,116998.93593996466,11.40625,988.59375,0.7
19800,118731.02248242733,11.296875,988.703125,0.7
19900,120481.92772799458,11.1875,988.8125,0.7
20000,122221.88266454371,11.546875,988.453125,0.7
20100,123951.9176883059,11.515625,988.484375,0.7
20200,125716.74003150853,11.5625,988.4375,0.7
20300,127511.1717902153,11.671875,988.328125,0.7
20400,129292.53249322003,11.765625,988.234375,0.7
20500,131112.9692409031,12.09375,987.90625,0.7
20600,132926.2284466889,11.96875,988.03125,0.7
20700,134758.2400862863,11.921875,988.078125,0.7
20800,136622.74599351664,11.953125,988.046875,0.7
20900,138510.69271747695,12.171875,987.828125,0.7
21000,140394.4398315506,12.34375,987.65625,0.7
21100,142294.80600669642,12.484375,987.515625,0.7
21200,144231.2669184542,12.609375,987.390625,0.7
21300,146160.66054918125,12.53125,987.46875,0.7
21400,148094.04713345005,12.53125,987.46875,0.7
21500,150039.4961221287,12.0625,987.9375,0.7
21600,152011.810534553,11.796875,988.203125,0.7
21700,154017.7457771919,11.5625,988.4375,0.7
21800,156037.93036043155,11.4375,988.5625,0.7
21900,158058.0524603247,11.203125,988.796875,0.7
22000,160086.47057136032,11.265625,988.734375,0.7
22100,162158.76841171633,11.328125,988.671875,0.7
22200,164246.81950064225,11.15625,988.84375,0.7
22300,166348.92196964382,11.046875,988.953125,0.7
22400,168470.33913747972,10.859375,989.140625,0.7
22500,170577.279998286,10.765625,989.234375,0.7
22600,172712.57592126593,10.59375,989.40625,0.7
22700,174846.8271018269,10.140625,989.859375,0.7
22800,176999.78480533874,10.09375,989.90625,0.7
22900,179169.3277134467,10.125,989.875,0.7
23000,181359.45782467088,10.21875,989.78125,0.7
23100,183554.14138272373,10.375,989.625,0.7
23200,185740.17252945667,10.40625,989.59375,0.7
23300,187944.79743520147,10.71875,989.28125,0.7
23400,190177.10928396808,10.78125,989.21875,0.7
23500,192422.86265304702,10.734375,989.265625,0.7
23600,194692.97003783903,10.828125,989.171875,0.7
23700,196992.3505944859,11.09375,988.90625,0.7
23800,199295.82933481204,10.953125,989.046875,0.7
23900,201619.32896014958,10.921875,989.078125,0.7
24000,203967.05971248896,10.640625,989.359375,0.7
24100,206344.31456189652,10.515625,989.484375,0.7
24200,208714.72497555078,10.265625,989.734375,0.7
24300,211077.28407026062,9.9375,990.0625,0.7
24400,213450.741384942,9.765625,990.234375,0.7
24500,215857.8648268525,9.609375,990.390625,0.7
24600,218245.4307376952,9.703125,990.296875,0.7
24700,220671.72774382663,9.578125,990.421875,0.7
24800,223090.72308230205,9.609375,990.390625,0.7
24900,225525.49523089585,9.84375,990.15625,0.7
25000,228000.02400992316,9.71875,990.28125,0.7
25100,230494.79098933592,9.78125,990.21875,0.7
25200,233018.550747676,9.65625,990.34375,0.7
25300,235522.389690808,9.65625,990.34375,0.7
25400,238039.310651215,9.609375,990.390625,0.7
25500,240592.87982869608,9.546875,990.453125,0.7
25600,243137.95113430743,9.453125,990.546875,0.7
25700,245697.7718220981,9.40625,990.59375,0.7
25800,248302.6373938786,9.5625,990.4375,0.7
25900,250895.4629802549,9.3125,990.6875,0.7
26000,253512.304150108,9.359375,990.640625,0.7
26100,256105.40980917274,9.328125,990.671875,0.7
26200,258739.9936016265,9.40625,990.59375,0.7
26300,261396.1980970038,9.34375,990.65625,0.7
26400,264079.13652236294,9.328125,990.671875,0.7
26500,266783.8942755592,9.296875,990.703125,0.7
26600,269481.5701660034,9.203125,990.796875,0.7
26700,272197.5681824384,9.171875,990.828125,0.7
26800,274944.44058905164,9.15625,990.84375,0.7
26900,277676.1438343202,9.125,990.875,0.7
27000,280423.63293770945,9.125,990.875,0.7
27100,283160.15760122915,9.09375,990.90625,0.7
27200,285901.8688365599,9.015625,990.984375,0.7
27300,288689.29922013514,8.921875,991.078125,0.7
27400,291470.96502486547,8.84375,991.15625,0.7
27500,294298.35563157615,8.890625,991.109375,0.7
27600,297137.46908806387,8.96875,991.03125,0.7
27700,299992.83214458503,8.90625,991.09375,0.7
27800,302860.80869225203,8.8125,991.1875,0.7
27900,305748.63144791266,8.859375,991.140625,0.7
28000,308655.6234581971,8.875,991.125,0.7
28100,311595.78699084796,8.828125,991.171875,0.7
28200,314520.5689210267,8.734375,991.265625,0.7
28300,317443.4546447468,8.703125,991.296875,0.7
28400,320392.01540055824,8.71875,991.28125,0.7
28500,323374.6743312802,8.71875,991.28125,0.7
28600,326371.8795094574,8.671875,991.328125,0.7
28700,329408.9003548734,8.640625,991.359375,0.7
28800,332442.62945034425,8.640625,991.359375,0.7
28900,335431.1633144578,8.703125,991.296875,0.7
29000,338458.37639595533,8.765625,991.234375,0.7
29100,341501.2555814608,8.875,991.125,0.7
29200,344568.8816681415,8.8125,991.1875,0.7
29300,347638.6896846409,8.6875,991.3125,0.7
29400,350742.5973745972,8.65625,991.34375,0.7
29500,353841.86677366495,8.640625,991.359375,0.7
29600,356970.7971798416,8.640625,991.359375,0.7
29700,360096.6719477733,8.65625,991.34375,0.7
29800,363255.9184111838,8.703125,991.296875,0.7
29900,366403.65081322344,8.8125,991.1875,0.7
30000,369588.145214515,8.6875,991.3125,0.7
30100,372785.27386113687,8.515625,991.484375,0.7
30200,376033.91318154713,8.40625,991.59375,0.7
30300,379285.1634760773,8.390625,991.609375,0.7
30400,382517.21523981664,8.328125,991.671875,0.7
30500,385780.7323767357,8.328125,991.671875,0.7
30600,389056.6744509638,8.296875,991.703125,0.7
30700,392380.2001169729,8.328125,991.671875,0.7
30800,395697.45857305493,8.34375,991.65625,0.7
30900,398985.6496541253,8.3125,991.6875,0.7
31000,402320.6992225938,8.421875,991.578125,0.7
31100,405638.20125755924,8.46875,991.53125,0.7
31200,408948.61443299666,8.640625,991.359375,0.7
31300,412311.32296943973,8.5,991.5,0.7
31400,415691.2402550516,8.46875,991.53125,0.7
31500,419123.8607405601,8.34375,991.65625,0.7
31600,422542.98271206376,8.375,991.625,0.7
31700,425952.0298229297,8.34375,991.65625,0.7
31800,429410.17592385825,8.390625,991.609375,0.7
31900,432905.4935683566,8.3125,991.6875,0.7
32000,436396.5342281321,8.34375,991.65625,0.7
32100,439925.1894866994,8.296875,991.703125,0.7
32200,443429.85274787847,8.28125,991.71875,0.7
32300,446966.4833613683,8.25,991.75,0.7
32400,450533.432800347,8.25,991.75,0.7
32500,454041.8250253339,8.28125,991.71875,0.7
32600,457597.2906984635,8.28125,991.71875,0.7
32700,461166.28774378553,8.265625,991.734375,0.7
32800,464742.14745768934,8.296875,991.703125,0.7
32900,468340.46052606375,8.265625,991.734375,0.7
33000,471977.018245975,8.25,991.75,0.7
33100,475611.440258782,8.265625,991.734375,0.7
33200,479284.81474418635,8.28125,991.71875,0.7
33300,482933.51502219285,8.359375,991.640625,0.7
33400,486645.7685388689,8.375,991.625,0.7
33500,490357.1809922418,8.328125,991.671875,0.7
33600,494066.5375443839,8.28125,991.71875,0.7
33700,497778.82943772804,8.203125,991.796875,0.7
33800,501516.7756711998,8.1875,991.8125,0.7
33900,505275.04430615937,8.21875,991.78125,0.7
34000,509068.7083979507,8.296875,991.703125,0.7
34100,512847.6519135092,8.21875,991.78125,0.7
34200,516642.64140691794,8.15625,991.84375,0.7
34300,520451.5199687978,8.15625,991.84375,0.7
34400,524268.6414820193,8.0625,991.9375,0.7
34500,528105.5131930287,8.09375,991.90625,0.7
34600,532004.1000008989,8.140625,991.859375,0.7
34700,535854.125619639,8.1875,991.8125,0.7
34800,539758.5047743549,8.140625,991.859375,0.7
34900,543625.090757769,8.140625,991.859375,0.7
35000,547481.126369556,8.09375,991.90625,0.7
35100,551367.1262414046,8.046875,991.953125,0.7
35200,555301.779560037,8.0625,991.9375,0.7
35300,559210.3687205163,8.0625,991.9375,0.7
35400,563174.901388416,8.09375,991.90625,0.7
35500,567122.8571187608,8.0625,991.9375,0.7
35600,571086.9928363836,8.0625,991.9375,0.7
35700,575122.1410116695,8.078125,991.921875,0.7
35800,579189.6571261466,8.0,992.0,0.7
35900,583274.7401800049,7.984375,992.015625,0.7
36000,587357.8200405835,8.015625,991.984375,0.7
36100,591439.2526630184,7.96875,992.03125,0.7
36200,595514.2742998507,8.0,992.0,0.7
36300,599589.250034987,8.015625,991.984375,0.7
36400,603692.1727280491,8.0,992.0,0.7
36500,607805.6113182222,8.03125,991.96875,0.7
36600,611928.0622821148,8.046875,991.953125,0.7
36700,616061.9178849298,8.0,992.0,0.7
36800,620145.3404123487,8.015625,991.984375,0.7
36900,624296.7014214549,8.0,992.0,0.7
37000,628461.4213891401,8.0,992.0,0.7
37100,632666.9295561821,8.078125,991.921875,0.7
37200,636939.6313584017,7.984375,992.015625,0.7
37300,641214.4430467314,7.984375,992.015625,0.7
37400,645465.5074974615,7.984375,992.015625,0.7
37500,649787.5523917604,7.984375,992.015625,0.7
37600,654118.6382496868,8.0,992.0,0.7
37700,658425.5157150284,7.984375,992.015625,0.7
37800,662743.1071451677,8.03125,991.96875,0.7
37900,667045.5833585765,8.0,992.0,0.7
38000,671358.4823266729,8.046875,991.953125,0.7
38100,675644.3260803226,8.09375,991.90625,0.7
38200,680004.9744008884,8.078125,991.921875,0.7
38300,684366.1376137704,8.09375,991.90625,0.7
38400,688761.3545264774,8.15625,991.84375,0.7
38500,693169.3162695216,8.109375,991.890625,0.7
38600,697610.6238557864,8.109375,991.890625,0.7
38700,702093.3441464211,8.09375,991.90625,0.7
38800,706578.7123318278,8.109375,991.890625,0.7
38900,711094.702755528,8.109375,991.890625,0.7
39000,715600.2470875457,8.125,991.875,0.7
39100,720120.438666098,8.1875,991.8125,0.7
39200,724601.8246670464,8.15625,991.84375,0.7
39300,729131.993815865,8.125,991.875,0.7
39400,733675.5594242725,8.109375,991.890625,0.7
39500,738221.9135657907,8.140625,991.859375,0.7
39600,742793.6258337159,8.21875,991.78125,0.7
39700,747342.1075876399,8.28125,991.71875,0.7
39800,751904.7142022868,8.3125,991.6875,0.7
39900,756542.2752129053,8.3125,991.6875,0.7
40000,761171.3387305881,8.328125,991.671875,0.7
40100,765793.3853155288,8.203125,991.796875,0.7
40200,770472.2044676903,8.15625,991.84375,0.7
40300,775155.951928493,8.15625,991.84375,0.7
40400,779868.9523952918,8.203125,991.796875,0.7
40500,784569.8647031157,8.171875,991.828125,0.7
40600,789330.6739641427,8.15625,991.84375,0.7
40700,794065.6006180913,8.140625,991.859375,0.7
40800,798784.8026202817,8.25,991.75,0.7
40900,803495.8964226879,8.3125,991.6875,0.7
41000,808237.7619387638,8.40625,991.59375,0.7
41100,813007.1577526836,8.4375,991.5625,0.7
41200,817796.7284525099,8.453125,991.546875,0.7
41300,822613.3788231642,8.46875,991.53125,0.7
41400,827441.0899921944,8.484375,991.515625,0.7
41500,832257.3712734,8.5625,991.4375,0.7
41600,837144.2893992865,8.546875,991.453125,0.7
41700,842027.468058667,8.609375,991.390625,0.7
41800,846911.6071610504,8.640625,991.359375,0.7
41900,851831.8846809426,8.65625,991.34375,0.7
42000,856775.3930050678,8.5625,991.4375,0.7
42100,861722.841321673,8.578125,991.421875,0.7
42200,866723.7770213783,8.515625,991.484375,0.7
42300,871636.0088999408,8.28125,991.71875,0.7
42400,876603.0163833223,8.296875,991.703125,0.7
42500,881597.6407844453,8.453125,991.546875,0.7
